# Frequency(cm-1)   Transmittance
355.000000   0.964468
358.196598   0.960691
361.393197   0.956938
364.589795   0.952071
367.786393   0.948489
370.982991   0.943520
374.179590   0.939181
377.376188   0.934877
380.572786   0.929685
383.769385   0.925701
386.965983   0.920532
390.162581   0.916037
393.359180   0.911604
396.555778   0.906482
399.752376   0.902506
402.948974   0.897527
406.145573   0.893255
409.342171   0.889076
412.538769   0.884374
415.735368   0.880763
418.931966   0.876305
422.128564   0.872574
425.325163   0.868962
428.521761   0.864961
431.718359   0.861995
434.914957   0.858315
438.111556   0.855366
441.308154   0.852553
444.504752   0.849457
447.701351   0.847339
450.897949   0.844611
454.094547   0.842601
457.291146   0.840721
460.487744   0.838554
463.684342   0.837089
466.880940   0.835748
470.077539   0.834881
473.274137   0.834096
476.470735   0.833150
479.667334   0.833064
482.863932   0.832519
486.060530   0.832657
489.257129   0.832946
492.453727   0.833145
495.650325   0.834167
498.846923   0.834798
502.043522   0.836100
505.240120   0.837550
508.436718   0.838941
511.633317   0.841090
514.829915   0.842865
518.026513   0.845257
521.223112   0.847753
524.419710   0.850185
527.616308   0.853297
530.812906   0.856040
534.009505   0.859349
537.206103   0.862724
540.402701   0.866032
543.599300   0.869947
546.795898   0.873491
549.992496   0.877546
553.189095   0.881618
556.385693   0.885605
559.582291   0.890116
562.778889   0.894234
565.975488   0.898794
569.172086   0.903304
572.368684   0.907692
575.565283   0.912505
578.761881   0.916882
581.958479   0.921617
585.155078   0.926220
588.351676   0.930649
591.548274   0.935394
594.744872   0.939654
597.941471   0.944183
601.138069   0.948498
604.334667   0.952587
607.531266   0.956890
610.727864   0.960659
613.924462   0.964616
617.121061   0.968281
620.317659   0.971674
623.514257   0.975185
626.710855   0.978124
629.907454   0.981179
633.104052   0.983879
636.300650   0.986276
639.497249   0.988714
642.693847   0.990563
645.890445   0.992480
649.087044   0.994005
652.283642   0.995224
655.480240   0.996440
658.676838   0.997079
661.873437   0.997771
665.070035   0.998070
668.266633   0.998092
671.463232   0.998101
674.659830   0.997581
677.856428   0.997131
681.053027   0.996322
684.249625   0.995293
687.446223   0.994275
690.642821   0.992803
693.839420   0.991443
697.036018   0.989785
700.232616   0.987985
703.429215   0.986241
706.625813   0.984134
709.822411   0.982198
713.019010   0.980037
716.215608   0.977820
719.412206   0.975715
722.608804   0.973342
725.805403   0.971200
729.002001   0.968909
732.198599   0.966645
735.395198   0.964545
738.591796   0.962266
741.788394   0.960271
744.984992   0.958197
748.181591   0.956218
751.378189   0.954448
754.574787   0.952573
757.771386   0.951023
760.967984   0.949447
764.164582   0.948021
767.361181   0.946832
770.557779   0.945595
773.754377   0.944708
776.950975   0.943831
780.147574   0.943139
783.344172   0.942698
786.540770   0.942245
789.737369   0.942148
792.933967   0.942081
796.130565   0.942214
799.327164   0.942594
802.523762   0.942977
805.720360   0.943706
808.916958   0.944463
812.113557   0.945414
815.310155   0.946590
818.506753   0.947765
821.703352   0.949254
824.899950   0.950750
828.096548   0.952414
831.293147   0.954260
834.489745   0.956077
837.686343   0.958158
840.882941   0.960202
844.079540   0.962367
847.276138   0.964650
850.472736   0.966855
853.669335   0.969251
856.865933   0.971546
860.062531   0.973893
863.259130   0.976275
866.455728   0.978509
869.652326   0.980845
872.848924   0.982996
876.045523   0.985115
879.242121   0.987170
882.438719   0.988994
885.635318   0.990820
888.831916   0.992368
892.028514   0.993793
895.225113   0.995051
898.421711   0.995996
901.618309   0.996842
904.814907   0.997326
908.011506   0.997602
911.208104   0.997624
914.404702   0.997264
917.601301   0.996727
920.797899   0.995765
923.994497   0.994540
927.191096   0.993003
930.387694   0.991051
933.584292   0.988880
936.780890   0.986263
939.977489   0.983370
943.174087   0.980152
946.370685   0.976533
949.567284   0.972700
952.763882   0.968450
955.960480   0.963958
959.157079   0.959177
962.353677   0.954055
965.550275   0.948770
968.746873   0.943139
971.943472   0.937342
975.140070   0.931332
978.336668   0.925075
981.533267   0.918738
984.729865   0.912158
987.926463   0.905509
991.123062   0.898744
994.319660   0.891843
997.516258   0.884960
1000.712856   0.877942
1003.909455   0.870959
1007.106053   0.863961
1010.302651   0.856934
1013.499250   0.850018
1016.695848   0.843070
1019.892446   0.836248
1023.089045   0.829501
1026.285643   0.822817
1029.482241   0.816321
1032.678839   0.809879
1035.875438   0.803636
1039.072036   0.797536
1042.268634   0.791573
1045.465233   0.785853
1048.661831   0.780250
1051.858429   0.774898
1055.055028   0.769738
1058.251626   0.764764
1061.448224   0.760072
1064.644822   0.755539
1067.841421   0.751292
1071.038019   0.747269
1074.234617   0.743464
1077.431216   0.739964
1080.627814   0.736652
1083.824412   0.733645
1087.021011   0.730883
1090.217609   0.728359
1093.414207   0.726152
1096.610805   0.724151
1099.807404   0.722465
1103.004002   0.721035
1106.200600   0.719854
1109.397199   0.718995
1112.593797   0.718352
1115.790395   0.718027
1118.986993   0.717961
1122.183592   0.718151
1125.380190   0.718662
1128.576788   0.719391
1131.773387   0.720438
1134.969985   0.721743
1138.166583   0.723303
1141.363182   0.725177
1144.559780   0.727268
1147.756378   0.729670
1150.952976   0.732321
1154.149575   0.735220
1157.346173   0.738422
1160.542771   0.741830
1163.739370   0.745533
1166.935968   0.749471
1170.132566   0.753639
1173.329165   0.758088
1176.525763   0.762722
1179.722361   0.767624
1182.918959   0.772732
1186.115558   0.778040
1189.312156   0.783592
1192.508754   0.789291
1195.705353   0.795217
1198.901951   0.801301
1202.098549   0.807537
1205.295148   0.813961
1208.491746   0.820475
1211.688344   0.827152
1214.884942   0.833920
1218.081541   0.840769
1221.278139   0.847727
1224.474737   0.854697
1227.671336   0.861744
1230.867934   0.868791
1234.064532   0.875829
1237.261131   0.882878
1240.457729   0.889839
1243.654327   0.896776
1246.850925   0.903606
1250.047524   0.910323
1253.244122   0.916941
1256.440720   0.923365
1259.637319   0.929656
1262.833917   0.935735
1266.030515   0.941597
1269.227114   0.947256
1272.423712   0.952626
1275.620310   0.957771
1278.816908   0.962614
1282.013507   0.967162
1285.210105   0.971433
1288.406703   0.975350
1291.603302   0.978984
1294.799900   0.982269
1297.996498   0.985223
1301.193097   0.987869
1304.389695   0.990147
1307.586293   0.992136
1310.782891   0.993778
1313.979490   0.995107
1317.176088   0.996151
1320.372686   0.996864
1323.569285   0.997331
1326.765883   0.997505
1329.962481   0.997431
1333.159080   0.997138
1336.355678   0.996595
1339.552276   0.995887
1342.748874   0.994975
1345.945473   0.993908
1349.142071   0.992718
1352.338669   0.991378
1355.535268   0.989974
1358.731866   0.988467
1361.928464   0.986909
1365.125063   0.985328
1368.321661   0.983698
1371.518259   0.982103
1374.714857   0.980501
1377.911456   0.978942
1381.108054   0.977448
1384.304652   0.975993
1387.501251   0.974653
1390.697849   0.973382
1393.894447   0.972229
1397.091046   0.971203
1400.287644   0.970281
1403.484242   0.969527
1406.680840   0.968892
1409.877439   0.968418
1413.074037   0.968108
1416.270635   0.967935
1419.467234   0.967952
1422.663832   0.968107
1425.860430   0.968435
1429.057029   0.968929
1432.253627   0.969559
1435.450225   0.970369
1438.646823   0.971300
1441.843422   0.972380
1445.040020   0.973594
1448.236618   0.974906
1451.433217   0.976350
1454.629815   0.977861
1457.826413   0.979460
1461.023012   0.981121
1464.219610   0.982803
1467.416208   0.984531
1470.612806   0.986232
1473.809405   0.987921
1477.006003   0.989562
1480.202601   0.991110
1483.399200   0.992581
1486.595798   0.993897
1489.792396   0.995068
1492.988994   0.996052
1496.185593   0.996801
1499.382191   0.997327
1502.578789   0.997551
1505.775388   0.997482
1508.971986   0.997077
1512.168584   0.996295
1515.365183   0.995145
1518.561781   0.993558
1521.758379   0.991549
1524.954977   0.989082
1528.151576   0.986127
1531.348174   0.982705
1534.544772   0.978760
1537.741371   0.974322
1540.937969   0.969368
1544.134567   0.963891
1547.331166   0.957923
1550.527764   0.951430
1553.724362   0.944460
1556.920960   0.937008
1560.117559   0.929087
1563.314157   0.920745
1566.510755   0.911967
1569.707354   0.902817
1572.903952   0.893302
1576.100550   0.883453
1579.297149   0.873325
1582.493747   0.862917
1585.690345   0.852300
1588.886943   0.841486
1592.083542   0.830513
1595.280140   0.819436
1598.476738   0.808257
1601.673337   0.797044
1604.869935   0.785810
1608.066533   0.774587
1611.263132   0.763425
1614.459730   0.752321
1617.656328   0.741336
1620.852926   0.730473
1624.049525   0.719760
1627.246123   0.709234
1630.442721   0.698886
1633.639320   0.688767
1636.835918   0.678870
1640.032516   0.669216
1643.229115   0.659830
1646.425713   0.650700
1649.622311   0.641863
1652.818909   0.633308
1656.015508   0.625047
1659.212106   0.617099
1662.408704   0.609446
1665.605303   0.602117
1668.801901   0.595099
1671.998499   0.588397
1675.195098   0.582026
1678.391696   0.575964
1681.588294   0.570238
1684.784892   0.564830
1687.981491   0.559745
1691.178089   0.554992
1694.374687   0.550551
1697.571286   0.546446
1700.767884   0.542657
1703.964482   0.539189
1707.161081   0.536050
1710.357679   0.533222
1713.554277   0.530724
1716.750875   0.528541
1719.947474   0.526676
1723.144072   0.525138
1726.340670   0.523908
1729.537269   0.523008
1732.733867   0.522422
1735.930465   0.522156
1739.127064   0.522217
1742.323662   0.522589
1745.520260   0.523294
1748.716858   0.524318
1751.913457   0.525667
1755.110055   0.527350
1758.306653   0.529352
1761.503252   0.531696
1764.699850   0.534368
1767.896448   0.537375
1771.093047   0.540728
1774.289645   0.544411
1777.486243   0.548448
1780.682841   0.552825
1783.879440   0.557550
1787.076038   0.562633
1790.272636   0.568058
1793.469235   0.573848
1796.665833   0.579988
1799.862431   0.586485
1803.059030   0.593345
1806.255628   0.600552
1809.452226   0.608125
1812.648824   0.616047
1815.845423   0.624318
1819.042021   0.632943
1822.238619   0.641898
1825.435218   0.651197
1828.631816   0.660815
1831.828414   0.670748
1835.025013   0.680989
1838.221611   0.691507
1841.418209   0.702306
1844.614807   0.713350
1847.811406   0.724623
1851.008004   0.736108
1854.204602   0.747760
1857.401201   0.759571
1860.597799   0.771491
1863.794397   0.783492
1866.990995   0.795543
1870.187594   0.807587
1873.384192   0.819604
1876.580790   0.831531
1879.777389   0.843332
1882.973987   0.854966
1886.170585   0.866371
1889.367184   0.877520
1892.563782   0.888349
1895.760380   0.898823
1898.956978   0.908902
1902.153577   0.918532
1905.350175   0.927695
1908.546773   0.936339
1911.743372   0.944446
1914.939970   0.951992
1918.136568   0.958945
1921.333167   0.965312
1924.529765   0.971064
1927.726363   0.976211
1930.922961   0.980757
1934.119560   0.984699
1937.316158   0.988071
1940.512756   0.990873
1943.709355   0.993144
1946.905953   0.994910
1950.102551   0.996195
1953.299150   0.997052
1956.495748   0.997501
1959.692346   0.997597
1962.888944   0.997379
1966.085543   0.996881
1969.282141   0.996164
1972.478739   0.995252
1975.675338   0.994203
1978.871936   0.993053
1982.068534   0.991835
1985.265133   0.990604
1988.461731   0.989376
1991.658329   0.988199
1994.854927   0.987100
1998.051526   0.986098
2001.248124   0.985235
2004.444722   0.984513
2007.641321   0.983964
2010.837919   0.983595
2014.034517   0.983414
2017.231116   0.983439
2020.427714   0.983654
2023.624312   0.984073
2026.820910   0.984681
2030.017509   0.985464
2033.214107   0.986417
2036.410705   0.987503
2039.607304   0.988709
2042.803902   0.989997
2046.000500   0.991325
2049.197099   0.992663
2052.393697   0.993945
2055.590295   0.995134
2058.786893   0.996158
2061.983492   0.996953
2065.180090   0.997460
2068.376688   0.997587
2071.573287   0.997273
2074.769885   0.996427
2077.966483   0.994968
2081.163082   0.992822
2084.359680   0.989892
2087.556278   0.986116
2090.752876   0.981408
2093.949475   0.975704
2097.146073   0.968951
2100.342671   0.961087
2103.539270   0.952091
2106.735868   0.941927
2109.932466   0.930591
2113.129065   0.918096
2116.325663   0.904452
2119.522261   0.889715
2122.718859   0.873926
2125.915458   0.857161
2129.112056   0.839504
2132.308654   0.821039
2135.505253   0.801883
2138.701851   0.782131
2141.898449   0.761904
2145.095048   0.741319
2148.291646   0.720480
2151.488244   0.699513
2154.684842   0.678513
2157.881441   0.657589
2161.078039   0.636833
2164.274637   0.616325
2167.471236   0.596153
2170.667834   0.576373
2173.864432   0.557049
2177.061031   0.538230
2180.257629   0.519951
2183.454227   0.502254
2186.650825   0.485152
2189.847424   0.468670
2193.044022   0.452818
2196.240620   0.437597
2199.437219   0.423016
2202.633817   0.409062
2205.830415   0.395735
2209.027014   0.383023
2212.223612   0.370911
2215.420210   0.359392
2218.616808   0.348441
2221.813407   0.338049
2225.010005   0.328195
2228.206603   0.318860
2231.403202   0.310031
2234.599800   0.301684
2237.796398   0.293805
2240.992996   0.286376
2244.189595   0.279376
2247.386193   0.272797
2250.582791   0.266613
2253.779390   0.260816
2256.975988   0.255391
2260.172586   0.250319
2263.369185   0.245595
2266.565783   0.241200
2269.762381   0.237127
2272.958979   0.233364
2276.155578   0.229900
2279.352176   0.226732
2282.548774   0.223845
2285.745373   0.221237
2288.941971   0.218900
2292.138569   0.216826
2295.335168   0.215017
2298.531766   0.213462
2301.728364   0.212163
2304.924962   0.211118
2308.121561   0.210321
2311.318159   0.209779
2314.514757   0.209485
2317.711356   0.209446
2320.907954   0.209662
2324.104552   0.210136
2327.301151   0.210876
2330.497749   0.211882
2333.694347   0.213165
2336.890945   0.214731
2340.087544   0.216588
2343.284142   0.218749
2346.480740   0.221222
2349.677339   0.224023
2352.873937   0.227165
2356.070535   0.230663
2359.267134   0.234540
2362.463732   0.238809
2365.660330   0.243496
2368.856928   0.248625
2372.053527   0.254218
2375.250125   0.260309
2378.446723   0.266923
2381.643322   0.274098
2384.839920   0.281869
2388.036518   0.290272
2391.233117   0.299353
2394.429715   0.309150
2397.626313   0.319715
2400.822911   0.331096
2404.019510   0.343340
2407.216108   0.356508
2410.412706   0.370644
2413.609305   0.385809
2416.805903   0.402053
2420.002501   0.419422
2423.199100   0.437969
2426.395698   0.457722
2429.592296   0.478714
2432.788894   0.500958
2435.985493   0.524445
2439.182091   0.549157
2442.378689   0.575029
2445.575288   0.601983
2448.771886   0.629893
2451.968484   0.658592
2455.165083   0.687880
2458.361681   0.717495
2461.558279   0.747150
2464.754877   0.776510
2467.951476   0.805212
2471.148074   0.832888
2474.344672   0.859150
2477.541271   0.883652
2480.737869   0.906067
2483.934467   0.926135
2487.131066   0.943670
2490.327664   0.958556
2493.524262   0.970789
2496.720860   0.980434
2499.917459   0.987651
2503.114057   0.992672
2506.310655   0.995771
2509.507254   0.997284
2512.703852   0.997546
2515.900450   0.996911
2519.097049   0.995721
2522.293647   0.994282
2525.490245   0.992888
2528.686843   0.991762
2531.883442   0.991091
2535.080040   0.990991
2538.276638   0.991498
2541.473237   0.992574
2544.669835   0.994058
2547.866433   0.995688
2551.063032   0.997050
2554.259630   0.997572
2557.456228   0.996522
2560.652826   0.992977
2563.849425   0.985885
2567.046023   0.974081
2570.242621   0.956405
2573.439220   0.931841
2576.635818   0.899668
2579.832416   0.859668
2583.029015   0.812210
2586.225613   0.758325
2589.422211   0.699605
2592.618809   0.638003
2595.815408   0.575608
2599.012006   0.514353
2602.208604   0.455857
2605.405203   0.401300
2608.601801   0.351412
2611.798399   0.306534
2614.994997   0.266675
2618.191596   0.231636
2621.388194   0.201066
2624.584792   0.174542
2627.781391   0.151621
2630.977989   0.131859
2634.174587   0.114847
2637.371186   0.100208
2640.567784   0.087606
2643.764382   0.076753
2646.960980   0.067392
2650.157579   0.059308
2653.354177   0.052312
2656.550775   0.046248
2659.747374   0.040980
2662.943972   0.036394
2666.140570   0.032394
2669.337169   0.028896
2672.533767   0.025830
2675.730365   0.023139
2678.926963   0.020769
2682.123562   0.018680
2685.320160   0.016833
2688.516758   0.015196
2691.713357   0.013745
2694.909955   0.012453
2698.106553   0.011303
2701.303152   0.010276
2704.499750   0.009357
2707.696348   0.008534
2710.892946   0.007795
2714.089545   0.007131
2717.286143   0.006533
2720.482741   0.005994
2723.679340   0.005507
2726.875938   0.005065
2730.072536   0.004666
2733.269135   0.004303
2736.465733   0.003974
2739.662331   0.003674
2742.858929   0.003401
2746.055528   0.003151
2749.252126   0.002924
2752.448724   0.002715
2755.645323   0.002525
2758.841921   0.002349
2762.038519   0.002189
2765.235118   0.002041
2768.431716   0.001905
2771.628314   0.001781
2774.824912   0.001665
2778.021511   0.001559
2781.218109   0.001461
2784.414707   0.001370
2787.611306   0.001286
2790.807904   0.001208
2794.004502   0.001135
2797.201101   0.001068
2800.397699   0.001006
2803.594297   0.000948
2806.790895   0.000894
2809.987494   0.000844
2813.184092   0.000797
2816.380690   0.000753
2819.577289   0.000713
2822.773887   0.000675
2825.970485   0.000639
2829.167084   0.000606
2832.363682   0.000575
2835.560280   0.000545
2838.756878   0.000518
2841.953477   0.000492
2845.150075   0.000468
2848.346673   0.000446
2851.543272   0.000424
2854.739870   0.000404
2857.936468   0.000385
2861.133067   0.000368
2864.329665   0.000351
2867.526263   0.000335
2870.722861   0.000320
2873.919460   0.000306
2877.116058   0.000293
2880.312656   0.000280
2883.509255   0.000269
2886.705853   0.000257
2889.902451   0.000247
2893.099050   0.000237
2896.295648   0.000227
2899.492246   0.000218
2902.688844   0.000210
2905.885443   0.000201
2909.082041   0.000194
2912.278639   0.000186
2915.475238   0.000179
2918.671836   0.000173
2921.868434   0.000166
2925.065033   0.000161
2928.261631   0.000155
2931.458229   0.000149
2934.654827   0.000144
2937.851426   0.000139
2941.048024   0.000135
2944.244622   0.000130
2947.441221   0.000126
2950.637819   0.000122
2953.834417   0.000118
2957.031016   0.000114
2960.227614   0.000111
2963.424212   0.000107
2966.620810   0.000104
2969.817409   0.000101
2973.014007   0.000098
2976.210605   0.000095
2979.407204   0.000092
2982.603802   0.000090
2985.800400   0.000087
2988.996998   0.000085
2992.193597   0.000082
2995.390195   0.000080
2998.586793   0.000078
3001.783392   0.000076
3004.979990   0.000074
3008.176588   0.000072
3011.373187   0.000071
3014.569785   0.000069
3017.766383   0.000067
3020.962981   0.000066
3024.159580   0.000064
3027.356178   0.000063
3030.552776   0.000061
3033.749375   0.000060
3036.945973   0.000059
3040.142571   0.000057
3043.339170   0.000056
3046.535768   0.000055
3049.732366   0.000054
3052.928964   0.000053
3056.125563   0.000052
3059.322161   0.000051
3062.518759   0.000050
3065.715358   0.000049
3068.911956   0.000048
3072.108554   0.000047
3075.305153   0.000046
3078.501751   0.000046
3081.698349   0.000045
3084.894947   0.000044
3088.091546   0.000043
3091.288144   0.000043
3094.484742   0.000042
3097.681341   0.000041
3100.877939   0.000041
3104.074537   0.000040
3107.271136   0.000040
3110.467734   0.000039
3113.664332   0.000039
3116.860930   0.000038
3120.057529   0.000038
3123.254127   0.000037
3126.450725   0.000037
3129.647324   0.000036
3132.843922   0.000036
3136.040520   0.000036
3139.237119   0.000035
3142.433717   0.000035
3145.630315   0.000035
3148.826913   0.000034
3152.023512   0.000034
